Leakage Impedance vs Slip 
Slip
(Ohm)
0	0.080710
-0.001	0.080608
-0.002	0.080607
-0.003	0.080606
-0.004	0.080605
-0.005	0.080604
-0.006	0.080602
-0.007	0.080600
-0.008	0.080598
-0.009	0.080596
-0.01	0.080593
-0.012	0.080587
-0.014	0.080581
-0.016	0.080574
-0.018	0.080567
-0.02	0.080559
-0.022	0.080551
-0.024	0.080542
-0.026	0.080534
-0.028	0.080525
-0.03	0.080516
-0.035	0.080494
-0.04	0.080471
-0.045	0.080444
-0.05	0.080397
-0.055	0.080351
-0.06	0.080305
-0.065	0.080259
-0.07	0.080213
-0.075	0.080167
-0.08	0.080122
-0.09	0.080032
-0.1	0.079909
-0.11	0.079709
-0.12	0.079514
-0.13	0.079322
-0.14	0.079137
-0.15	0.078954
-0.16	0.078575
-0.17	0.077893
-0.18	0.077081
-0.19	0.076301
-0.2	0.075556
-0.21	0.074836
-0.22	0.074222
-0.23	0.073641
-0.24	0.073081
-0.25	0.072533
-0.26	0.072003
-0.27	0.071483
-0.28	0.070980
-0.29	0.070484
-0.3	0.070004
-0.31	0.069529
-0.32	0.069070
-0.33	0.068613
-0.34	0.068173
-0.35	0.067788
-0.36	0.067482
-0.37	0.067177
-0.38	0.066882
-0.39	0.066588
-0.4	0.066304
-0.41	0.066020
-0.42	0.065747
-0.43	0.065472
-0.44	0.065209
-0.45	0.064943
-0.46	0.064688
-0.47	0.064430
-0.48	0.064184
-0.49	0.063933
-0.5	0.063696
-0.51	0.063451
-0.52	0.063281
-0.53	0.063136
-0.54	0.062997
-0.55	0.062857
-0.56	0.062723
-0.58	0.062457
-0.6	0.062203
-0.62	0.061957
-0.64	0.061719
-0.66	0.061490
-0.68	0.061269
-0.7	0.061055
-0.72	0.060848
-0.74	0.060648
-0.76	0.060474
-0.78	0.060388
-0.8	0.060305
-0.82	0.060226
-0.84	0.060150
-0.86	0.060077
-0.88	0.060007
-0.9	0.059940
-0.92	0.059875
-0.94	0.059813
-0.96	0.059754
-0.98	0.059696
-1	0.059641
Stator Leakage Reactance x1
0	0.072627
-0.001	0.072627
-0.002	0.072630
-0.003	0.072633
-0.004	0.072639
-0.005	0.072645
-0.006	0.072653
-0.007	0.072663
-0.008	0.072674
-0.009	0.072686
-0.01	0.072700
-0.012	0.072731
-0.014	0.072767
-0.016	0.072808
-0.018	0.072853
-0.02	0.072901
-0.022	0.072953
-0.024	0.073007
-0.026	0.073065
-0.028	0.073124
-0.03	0.073184
-0.035	0.073341
-0.04	0.073500
-0.045	0.073658
-0.05	0.073811
-0.055	0.073956
-0.06	0.074094
-0.065	0.074222
-0.07	0.074341
-0.075	0.074450
-0.08	0.074551
-0.09	0.074728
-0.1	0.074876
-0.11	0.074999
-0.12	0.075103
-0.13	0.075190
-0.14	0.075263
-0.15	0.075325
-0.16	0.075379
-0.17	0.075424
-0.18	0.075464
-0.19	0.075498
-0.2	0.075528
-0.21	0.075555
-0.22	0.075578
-0.23	0.075598
-0.24	0.075617
-0.25	0.075633
-0.26	0.075648
-0.27	0.075661
-0.28	0.075673
-0.29	0.075683
-0.3	0.075693
-0.31	0.075702
-0.32	0.075710
-0.33	0.075718
-0.34	0.075724
-0.35	0.075731
-0.36	0.075736
-0.37	0.075742
-0.38	0.075747
-0.39	0.075751
-0.4	0.075755
-0.41	0.075759
-0.42	0.075763
-0.43	0.075766
-0.44	0.075770
-0.45	0.075773
-0.46	0.075775
-0.47	0.075778
-0.48	0.075780
-0.49	0.075783
-0.5	0.075785
-0.51	0.075787
-0.52	0.075789
-0.53	0.075791
-0.54	0.075793
-0.55	0.075794
-0.56	0.075796
-0.58	0.075799
-0.6	0.075801
-0.62	0.075804
-0.64	0.075806
-0.66	0.075808
-0.68	0.075810
-0.7	0.075811
-0.72	0.075813
-0.74	0.075814
-0.76	0.075815
-0.78	0.075817
-0.8	0.075818
-0.82	0.075819
-0.84	0.075820
-0.86	0.075821
-0.88	0.075821
-0.9	0.075822
-0.92	0.075823
-0.94	0.075824
-0.96	0.075824
-0.98	0.075825
-1	0.075825
Rotor Resistance r2
-0.001	0.148378
-0.002	0.148342
-0.003	0.148283
-0.004	0.148201
-0.005	0.148095
-0.006	0.147967
-0.007	0.147816
-0.008	0.147644
-0.009	0.147449
-0.01	0.147234
-0.012	0.146744
-0.014	0.146177
-0.016	0.145539
-0.018	0.144838
-0.02	0.144079
-0.022	0.143268
-0.024	0.142413
-0.026	0.141520
-0.028	0.140595
-0.03	0.139646
-0.035	0.137198
-0.04	0.134711
-0.045	0.132238
-0.05	0.129793
-0.055	0.127456
-0.06	0.125248
-0.065	0.123179
-0.07	0.121254
-0.075	0.119471
-0.08	0.117825
-0.09	0.114913
-0.1	0.112368
-0.11	0.110021
-0.12	0.107998
-0.13	0.106239
-0.14	0.104704
-0.15	0.103348
-0.16	0.101709
-0.17	0.099564
-0.18	0.097289
-0.19	0.095204
-0.2	0.093285
-0.21	0.091495
-0.22	0.089972
-0.23	0.088565
-0.24	0.087239
-0.25	0.085972
-0.26	0.084771
-0.27	0.083614
-0.28	0.082511
-0.29	0.081441
-0.3	0.080419
-0.31	0.079420
-0.32	0.078464
-0.33	0.077523
-0.34	0.076623
-0.35	0.075832
-0.36	0.075190
-0.37	0.074558
-0.38	0.073951
-0.39	0.073350
-0.4	0.072774
-0.41	0.072202
-0.42	0.071653
-0.43	0.071105
-0.44	0.070581
-0.45	0.070055
-0.46	0.069554
-0.47	0.069048
-0.48	0.068567
-0.49	0.068078
-0.5	0.067616
-0.51	0.067144
-0.52	0.066807
-0.53	0.066517
-0.54	0.066240
-0.55	0.065962
-0.56	0.065696
-0.58	0.065173
-0.6	0.064673
-0.62	0.064193
-0.64	0.063732
-0.66	0.063288
-0.68	0.062861
-0.7	0.062449
-0.72	0.062052
-0.74	0.061670
-0.76	0.061335
-0.78	0.061161
-0.8	0.060995
-0.82	0.060837
-0.84	0.060685
-0.86	0.060539
-0.88	0.060400
-0.9	0.060266
-0.92	0.060138
-0.94	0.060015
-0.96	0.059898
-0.98	0.059785
-1	0.059676
Rotor Leakage Reactance x2
